"lat","lon","id"
41.4100442923624,2.09249319143587,0
41.4100446110723,2.09249392007303,0
41.4100449408115,2.09249467308402,0
41.4100452942161,2.0924954872864,0
41.4100457034386,2.09249645393754,0
41.4100462509458,2.09249779809568,0
41.4100471517559,2.09250006786219,0
41.4100489802388,2.09250455919368,0
41.4100532838514,2.09251414133295,0
41.4100639245079,2.09253434579762,0
41.4100883658213,2.09257294276355,0
41.4101347641343,2.09263300833798,0
41.4102011671774,2.09270122239281,0
41.4102793870399,2.09276059546495,0
41.4103671385296,2.09280647421902,0
41.4104619580388,2.09284445149335,0
41.4105579101953,2.09287906464164,0
41.4106577741627,2.09291307676146,0
41.4107569457104,2.09294756873939,0
41.4108472187913,2.0929814726944,0
41.4109354673068,2.09301326959543,0
41.4110273424934,2.09303842020342,0
41.4111245142898,2.09305412726224,0
41.4112228265059,2.09305457927536,0
41.4113247506521,2.09304175885011,0
41.4114298169138,2.09302511645135,0
41.411531244421,2.09300878977286,0
41.4116283797085,2.09299339659116,0
41.4117213198035,2.0929796559975,0
41.4118089721563,2.09297459558589,0
41.41189467468,2.09299639612802,0
41.4119788124998,2.0930535697298,0
41.412051582847,2.09312928376365,0
41.4121169736568,2.09321123232772,0
41.4121771928303,2.09329298443802,0
41.4122346561106,2.09337623173879,0
41.4122900854278,2.09345852216556,0
41.4123457853509,2.0935367273259,0
41.4124102738168,2.09361238407164,0
41.4124831236552,2.0936783887984,0
41.4125582384548,2.09372755835226,0
41.4126336027614,2.09375336027494,0
41.4127150011268,2.0937412195569,0
41.4127994754631,2.09368635601585,0
41.4128724931884,2.09361280386254,0
41.4129312717367,2.09354435128152,0
41.4129809064934,2.09348480683054,0
41.4130214438779,2.09343320896135,0
41.4130521057244,2.09338966864252,0
41.4130741873902,2.09335369376984,0
41.4130903884873,2.09332457247318,0
41.4131025613336,2.09330108319412,0
41.4131119456097,2.09328201019379,0
41.4131193655236,2.09326629544245,0
41.4131253810753,2.09325308995764,0
41.4131303799346,2.09324174386185,0
41.4131346348829,2.09323176961149,0
41.4131383412958,2.09322280164645,0
41.413141641973,2.09321456229253,0
41.4131446434227,2.09320683581567,0
41.4131474250722,2.09319944909074,0
41.4131500348701,2.09319225419114,0
41.4131524195477,2.09318509284666,0
41.4131539557802,2.09317762657337,0
41.4131504808313,2.09316832435709,0
41.4131159540185,2.09314846338129,0
41.4129763867175,2.09310409193565,0
41.412842389166,2.09309198774001,0
41.4127685471053,2.09307698665047,0
41.412711729703,2.09302093646269,0
41.4126672375809,2.0929258228908,0
41.4126513090906,2.09282742346003,0
41.4126480156999,2.09272392784349,0
41.412640946031,2.09262409655398,0
41.4126360308829,2.09252542375395,0
41.4126394660765,2.09241659367799,0
41.4126422431993,2.09231473755276,0
41.4126435773999,2.09222187483811,0
41.4126499350242,2.09212832692446,0
41.4126702520875,2.09203481546811,0
41.4127076152482,2.09193634564801,0
41.4127490184438,2.09184164965817,0
41.4127887687815,2.09175248206255,0
41.4128354860197,2.0916570189729,0
41.4128888131375,2.09156226913432,0
41.4129369191323,2.09147940543372,0
41.412983707218,2.09139543356429,0
41.4130311317447,2.09130332253846,0
41.4130773292929,2.09121526830498,0
41.4131245315284,2.09113627287938,0
41.413174323208,2.09105784049898,0
41.4132268300348,2.09096987163585,0
41.413279043159,2.0908794546232,0
41.4133302482008,2.09079109045961,0
41.4133829748618,2.09070734026016,0
41.413439905084,2.0906264149376,0
41.4134951411595,2.09053847900385,0
41.4135458963951,2.0904530049735,0
41.4135932949179,2.09037066485804,0
41.413633016583,2.09027523476927,0
41.4136778964268,2.09018922265122,0
41.4137083070294,2.09012461267778,0
41.4137246102385,2.09009103311814,0
41.4137315131709,2.09007768158725,0
41.4137341422067,2.09007306296856,0
41.4137350797196,2.0900715419999,0
41.413735587177,2.09007067967626,0
41.4137359529542,2.09007003857732,0
41.4137362718184,2.09006947237825,0
41.4137365750336,2.0900689328313,0
41.4137368729791,2.09006840416104,0
41.4137371691085,2.09006788122943,0
41.4137374645863,2.09006736236997,0
41.4137377598234,2.0900668470463,0
41.413738054983,2.09006633508923,0
41.413738350148,2.09006582644886,0
41.4137386453747,2.09006532111416,0
41.4137389407117,2.09006481908704,0
41.4137392362046,2.0900643203739,0
41.413739531899,2.09006382498296,0
41.4137398278401,2.09006333292338,0
41.4137401240734,2.09006284420497,0
41.4137404206446,2.09006235883805,0
41.4137407175994,2.09006187683347,0
41.4137410149841,2.09006139820257,0
41.4137413128445,2.09006092295711,0
41.4137416112268,2.09006045110934,0
41.413741910177,2.09005998267196,0
41.4137422097414,2.09005951765808,0
41.4137425099656,2.09005905608123,0
41.4137428108955,2.09005859795537,0
41.4137431125765,2.09005814329483,0
41.4137434150539,2.09005769211437,0
41.4137437183725,2.09005724442907,0
41.4137440225767,2.09005680025439,0
41.4137443277105,2.09005635960613,0
41.4137446338172,2.0900559225004,0
41.4137449409396,2.0900554889536,0
41.4137452491198,2.09005505898243,0
41.4137455583992,2.09005463260378,0
41.4137458688181,2.0900542098348,0
41.4137461804163,2.09005379069279,0
41.4137464932324,2.09005337519519,0
41.4137468073038,2.09005296335953,0
41.413747122667,2.09005255520339,0
41.4137474393572,2.09005215074431,0
41.4137477574083,2.0900517499998,0
41.4137480768528,2.09005135298719,0
41.4137483977218,2.09005095972361,0
41.4137487200448,2.09005057022592,0
41.4137490438495,2.09005018451058,0
41.4137493691622,2.09004980259358,0
41.413749696007,2.09004942449035,0
41.4137500244063,2.09004905021564,0
41.4137503543805,2.09004867978342,0
41.4137506859478,2.09004831320673,0
41.4137510191243,2.09004795049757,0
41.4137513539237,2.09004759166679,0
41.4137516903574,2.0900472367239,0
41.4137520284344,2.09004688567696,0
41.4137523681609,2.09004653853239,0
41.4137527095407,2.09004619529488,0
41.413753052575,2.09004585596714,0
41.4137533972619,2.0900455205498,0
41.413753743597,2.09004518904124,0
41.4137540915727,2.0900448614374,0
41.4137544411788,2.0900445377316,0
41.4137547924018,2.09004421791445,0
41.4137551452256,2.09004390197359,0
41.4137554996307,2.09004358989362,0
41.4137558555949,2.09004328165591,0
41.413756213093,2.09004297723845,0
41.4137565720966,2.09004267661578,0
41.4137569325748,2.09004237975878,0
41.4137572944934,2.09004208663465,0
41.4137576578158,2.09004179720677,0
41.4137580225026,2.09004151143463,0
41.4137583885118,2.0900412292738,0
41.4137587557989,2.09004095067583,0
41.4137591243173,2.0900406755883,0
41.4137594940181,2.09004040395474,0
41.4137598648502,2.09004013571469,0
41.4137602367609,2.09003987080375,0
41.4137606096959,2.09003960915354,0
41.4137609835991,2.09003935069188,0
41.4137613584134,2.0900390953428,0
41.4137617340802,2.09003884302665,0
41.4137621105405,2.09003859366025,0
41.4137624877342,2.09003834715698,0
41.4137628656007,2.09003810342695,0
41.4137632440791,2.09003786237715,0
41.4137636231084,2.09003762391159,0
41.4137640026274,2.09003738793149,0
41.4137643825753,2.09003715433545,0
41.4137647628914,2.09003692301965,0
41.4137651435157,2.09003669387803,0
41.4137655243888,2.09003646680244,0
41.4137659054518,2.09003624168289,0
41.413766286647,2.09003601840773,0
41.4100396683178,2.09248171961248,1
41.4100399344701,2.09248244019945,1
41.4100402037778,2.09248316018837,1
41.4100404762073,2.09248387957808,1
41.4100407517262,2.09248459836948,1
41.4100410303035,2.09248531656559,1
41.410041311909,2.09248603417164,1
41.4100415965141,2.09248675119526,1
41.4100418840918,2.09248746764714,1
41.4100421746171,2.09248818354248,1
41.4100424680681,2.09248889890473,1
41.4100427644295,2.0924896137749,1
41.4100430636988,2.09249032823476,1
41.4100433659058,2.09249104246458,1
41.4100436711583,2.09249175688693,1
41.4100439797598,2.09249247252447,1
41.4100442925059,2.09249319189052,1
41.4100446114354,2.09249392120445,1
41.4100449417307,2.09249467589881,1
41.4100452965453,2.09249549428457,1
41.4100457093567,2.09249647130851,1
41.4100462660783,2.09249784104646,1
41.4100471909417,2.09250017308199,1
41.4100490836138,2.09250481155988,1
41.4100535584868,2.09251472000336,1
41.410064618396,2.09253556166986,1
41.4100898718155,2.0925751122237,1
41.4101372666942,2.09263591822446,1
41.4102043224707,2.09270403273391,1
41.4102829594796,2.09276282802807,1
41.4103711080581,2.0928082149792,1
41.4104660773041,2.09284599269302,1
41.4105620720214,2.09288051107732,1
41.4106621648495,2.09291456316469,1
41.4107609821804,2.0929490347638,1
41.4108509999465,2.09298291231306,1
41.4109393023506,2.09301451076514,1
41.4110314338367,2.0930393165871,1
41.4111287267918,2.09305450060447,1
41.4112270994691,2.09305423377704,1
41.4113292371177,2.09304106882747,1
41.4114342881466,2.0930243996042,1
41.4115354836453,2.09300810832396,1
41.4116324753982,2.09299275880455,1
41.4117251863027,2.09297916499773,1
41.4118126553902,2.0929748274181,1
41.4118983596488,2.09299817077543,1
41.4119821922377,2.09305657401929,1
41.4120544763928,2.09313270899507,1
41.4121196626795,2.09321476094079,1
41.4121796752257,2.09329648398227,1
41.4122370878801,2.09337983115277,1
41.4122924051942,2.09346193129665,1
41.4123483276934,2.09354003431948,1
41.4124132764296,2.09361546370595,1
41.412486408666,2.09368086981019,1
41.4125617156294,2.09372908822743,1
41.4126377578385,2.093752931919,1
41.4127200001828,2.09373717366692,1
41.4128045928959,2.09367900460066,1
41.4128776078325,2.09360207512463,1
41.4129408240269,2.09352402679898,1
41.413002215179,2.09344286546904,1
41.4130572830319,2.09335674859746,1
41.4131000895556,2.09327044899013,1
41.4131314638814,2.09318432372762,1
41.4131550260884,2.09309266822471,1
41.4131813782444,2.0929938147592,1
41.4132183654574,2.09289519426587,1
41.4132592909668,2.09280249652051,1
41.4132987793768,2.09270901386091,1
41.4133397331526,2.09260922027191,1
41.4133785393705,2.09251190593328,1
41.4134140214633,2.09241760852326,1
41.4134492010365,2.09232199830534,1
41.4134832153057,2.09222882106926,1
41.4135171317643,2.09213429460955,1
41.4135506912662,2.09203567713388,1
41.4135819708907,2.09193783536039,1
41.4136124128095,2.0918451080509,1
41.4136446792069,2.09175357949649,1
41.4136772437409,2.0916632808747,1
41.4137074612435,2.09157223548904,1
41.4137461672408,2.09147803167623,1
41.4138061348264,2.09139312689,1
41.4138768343459,2.09132853344871,1
41.4139519036358,2.09127169231492,1
41.4140285772187,2.09120390664805,1
41.4141002429111,2.091126017648,1
41.4141654980931,2.09104760308935,1
41.4142291793124,2.09097139239037,1
41.4142915709971,2.09089602473337,1
41.414352715016,2.09082149458659,1
41.4144166042667,2.09075097456551,1
41.4144857112619,2.09068415224539,1
41.4145582381801,2.09061098472848,1
41.4146231854218,2.09052731139699,1
41.4146795755651,2.09043919675472,1
41.4147298182249,2.0903525626796,1
41.4147766911345,2.09026219886112,1
41.4148447617198,2.09017267575728,1
41.4149167138302,2.0901073627461,1
41.4150010630061,2.09008577777138,1
41.4150922399372,2.09009754147288,1
41.4151552145723,2.09013427086389,1
41.4151821915947,2.09018974215496,1
41.4151987633207,2.0902634205465,1
41.4152152141256,2.09035590131652,1
41.4152308888647,2.09045815242261,1
41.4152490780853,2.09055869989913,1
41.4152760329292,2.09065602166981,1
41.4153122020077,2.09074613950125,1
41.4153599977682,2.09082416710004,1
41.4154207135584,2.09089486919383,1
41.415493920099,2.09096761742883,1
41.4155688452598,2.09104344557105,1
41.4156290823276,2.0911256888536,1
41.415665385562,2.0912227956883,1
41.4156779770558,2.0913231998994,1
41.4156744589402,2.09141596962989,1
41.4156631831446,2.09150733998405,1
41.4156499975715,2.09160159213976,1
41.4156387989937,2.09169927814659,1
41.4156276885363,2.09179877118559,1
41.4156137665615,2.09190016050787,1
41.4155995900668,2.09200348626588,1
41.4155865002169,2.09210786869586,1
41.4155767130521,2.09220855196273,1
41.4155796121232,2.09230769220134,1
41.4156133923216,2.09240788583855,1
41.4156737901317,2.09249184859907,1
41.4157220403303,2.0925313624345,1
41.4157412065896,2.09254408416767,1
41.4157474338697,2.09254739985737,1
41.41574887489,2.09254851865305,1
41.4157483346828,2.09254959540358,1
41.4157466493847,2.09255116207161,1
41.4157439977086,2.09255333991381,1
41.4157402792151,2.09255619372813,1
41.4157351792374,2.09255983778704,1
41.4157281118382,2.09256448635149,1
41.4157181445076,2.09257052422117,1
41.4157045494979,2.0925788129543,1
41.4156914980885,2.09259195953082,1
41.4156869115,2.09261020541915,1
41.4156848476793,2.09263024942565,1
41.4156820421006,2.09265322532459,1
41.4156782104648,2.09268382137153,1
41.4156723844013,2.09272942165573,1
41.4156631745794,2.09279599733276,1
41.415648270179,2.09288652588898,1
41.4156270163148,2.09299378597068,1
41.4156056309107,2.09309252386207,1
41.4155883875814,2.09319077257921,1
41.4155737824579,2.0932920576874,1
41.4155541232128,2.09339141583405,1
41.4155334030013,2.09348714630093,1
41.4155213864195,2.09357243213872,1
41.4155099754139,2.09366976212636,1
41.4154948768193,2.09378462883672,1
41.4154854653285,2.09388625929626,1
41.4154754396127,2.09398869633688,1
41.4154638846599,2.09408579769732,1
41.4154583202704,2.09416973423186,1
41.4154539376153,2.09425009714977,1
41.4154424940198,2.09435134629804,1
41.4154246434568,2.0944663221389,1
41.4154095054078,2.09455437041478,1
41.415409393557,2.09461961274813,1
41.4154410282974,2.0946904036271,1
41.4154876382282,2.09477443086974,1
41.4155426892356,2.09484248324872,1
41.415617288863,2.09490932366549,1
41.4156998248557,2.09498326234427,1
41.4157642178723,2.09503649420223,1
41.4157990773621,2.09506133188857,1
41.4158230531599,2.09507809693301,1
41.415848098403,2.09509752766525,1
41.4158889103664,2.09513127721679,1
41.4159779830628,2.09520988157241,1
41.4160775386784,2.09530118682434,1
41.4161455341122,2.09534998809303,1
41.4162093576935,2.09539072152628,1
41.4163003422346,2.09545493347021,1
41.4164109845231,2.09554529383592,1
41.4164712340563,2.09560042325047,1
41.416511175455,2.09562834890974,1
41.4165549494739,2.09565564823467,1
41.4166252175768,2.09570115602305,1
41.4167214442611,2.0957682880735,1
41.4167777491507,2.09583293373368,1
41.4168430236482,2.09594567511106,1
41.4169040971568,2.09604979322724,1
41.416947652908,2.09612010680585,1
41.4169910245992,2.09619692481707,1
41.4170200033378,2.09630249356093,1
41.4170208896594,2.09640348779866,1
41.4169996587834,2.09643825001728,1
41.4169694131586,2.09645008142886,1
41.4130690378458,2.09333547081487,2
41.413108780936,2.0932494238305,2
41.4131377125362,2.09316255280015,2
41.413160722245,2.09306883607518,2
41.4131895299402,2.09296921923905,2
41.4132284852449,2.09287188000364,2
41.41326902376,2.09278006531086,2
41.4133087207313,2.09268483418963,2
41.4133496688193,2.09258479099469,2
41.4133874359828,2.09248869178789,2
41.4134226679464,2.09239417927093,2
41.4134577056425,2.09229879290214,2
41.4134914729187,2.09220601534682,2
41.4135255254083,2.09211031992893,2
41.4135586005192,2.09201127000456,2
41.4135894010691,2.09191463945344,2
41.4136201431316,2.0918226298784,2
41.4136528054239,2.09173119547008,2
41.4136848247604,2.09164121977979,2
41.413715387376,2.09154914453339,2
41.4137590514282,2.09145564848106,2
41.4138229896299,2.09137540921381,2
41.4138948832549,2.09131476558452,2
41.4139708315016,2.09125640253373,2
41.4140468338128,2.09118531289548,2
41.4141167155108,2.09110656787159,2
41.4141811228507,2.09102872767767,2
41.4142447370724,2.09095285495849,2
41.414306534387,2.09087757990619,2
41.4143680424925,2.09080364892212,2
41.4144329924462,2.0907345197047,2
41.4145035907765,2.09066714645385,2
41.4145751168067,2.0905913537092,2
41.4146377649493,2.09050566156427,2
41.4146923514789,2.09041791169744,2
41.4147420500462,2.09033114749564,2
41.4147913657503,2.09024365776455,2
41.4148368835746,2.09017008003031,2
41.414882794734,2.0901186021609,2
41.4149461904875,2.09008867382011,2
41.4150277435474,2.09008191259276,2
41.4151028797608,2.09010193428991,2
41.4151562867412,2.09016690626723,2
41.4151920883538,2.09026822331818,2
41.4152152487659,2.09037201352605,2
41.4152311589719,2.09046906819457,2
41.4152493644445,2.09056270271585,2
41.4152754583021,2.090656571385,2
41.415312316899,2.09074708198937,2
41.4153671809387,2.09083187851256,2
41.4154388296374,2.09091158493988,2
41.4155137940034,2.09098417751614,2
41.4155795172307,2.09105134228263,2
41.4156306715555,2.09112691228855,2
41.4156627669132,2.09121544793207,2
41.4156761137939,2.09130698864805,2
41.4156744799044,2.09140170137849,2
41.4156625717337,2.0915061874578,2
41.4156484917346,2.09161307512022,2
41.415637254612,2.09171688767661,2
41.4156251495931,2.09181739427641,2
41.4156112397261,2.09191593505455,2
41.4155975225731,2.09201218833861,2
41.4155819611964,2.09210418933091,2
41.4155634948364,2.09218632672944,2
41.4155449464925,2.09225861572279,2
41.4155371974648,2.09232577163395,2
41.4155539731774,2.09239246809128,2
41.415583333544,2.0924463189775,2
41.4156089191204,2.09248323419025,2
41.4156312756537,2.0925039554032,2
41.4156604437978,2.09251077287726,2
41.4157186251492,2.09249628207759,2
41.4158026986769,2.09243179356063,2
41.4158830184556,2.09234697870818,2
41.4159535531258,2.09226128374655,2
41.4160191240872,2.09217917277337,2
41.4160817492836,2.09209788813617,2
41.4161427267163,2.09201489274167,2
41.4161997325404,2.09193349742205,2
41.4162547289679,2.09185322120068,2
41.4163082393627,2.09177727944197,2
41.4163560527008,2.09170928036804,2
41.4163902351756,2.09164821354799,2
41.4163852044081,2.0915760869414,2
41.416251676513,2.09143045494477,2
41.416208853394,2.09131356622558,2
41.4162190452774,2.09124101835071,2
41.4162511683382,2.09116440947607,2
41.4162864824614,2.09105874033046,2
41.4163028852995,2.09093086231404,2
41.4162930156885,2.09083127241705,2
41.4162721625266,2.09075077930962,2
41.4162433252424,2.09067390561855,2
41.4161930515748,2.0905837818899,2
41.4161381789885,2.09047688883888,2
41.4160918933186,2.09036895599225,2
41.4160614823784,2.0902929579865,2
41.4160389606637,2.09022763334825,2
41.4160192188735,2.09014868947303,2
41.4160137036672,2.090104973522,2
41.4160130687471,2.09008929665631,2
41.41601324041,2.09008466246927,2
41.416013341571,2.09008338734373,2
41.4160133737519,2.09008304414754,2
41.4160133689424,2.09008259765041,2
41.4160133699303,2.09008212567225,2
41.4160133735733,2.09008164920429,2
41.4160133792991,2.09008117388092,2
41.4160133869521,2.09008070120868,2
41.4160133964861,2.09008023158793,2
41.4160134078851,2.09007976512303,2
41.4160134211413,2.09007930183884,2
41.4160134362483,2.09007884173831,2
41.4160134532001,2.09007838481773,2
41.4160134719901,2.09007793107086,2
41.4160134926113,2.09007748049003,2
41.4160135150557,2.09007703306647,2
41.4160135393152,2.09007658879043,2
41.4160135653805,2.09007614765125,2
41.4160135932422,2.09007570963746,2
41.4160136228898,2.09007527473681,2
41.4160136543126,2.09007484293632,2
41.4160136874988,2.09007441422236,2
41.4160137224365,2.09007398858071,2
41.4160137591126,2.09007356599658,2
41.4160137975139,2.09007314645474,2
41.4160138376262,2.09007272993948,2
41.4160138794348,2.09007231643475,2
41.4160139229245,2.09007190592419,2
41.4160139680794,2.09007149839113,2
41.4160140148829,2.09007109381875,2
41.416014063318,2.09007069219003,2
41.4160141133671,2.09007029348784,2
41.4160141650118,2.09006989769503,2
41.4160142182334,2.0900695047944,2
41.4160142730125,2.0900691147688,2
41.4160143293293,2.09006872760116,2
41.4160143871633,2.09006834327453,2
41.4160144464936,2.09006796177212,2
41.4160145072987,2.09006758307737,2
41.4160145695567,2.09006720717391,2
41.4160146332453,2.0900668340457,2
41.4160146983415,2.09006646367698,2
41.416014764822,2.09006609605232,2
41.4160148326631,2.09006573115669,2
41.4160149018406,2.09006536897543,2
41.41601497233,2.09006500949432,2
41.4160150441062,2.09006465269957,2
41.416015117144,2.09006429857786,2
41.4160151914176,2.09006394711635,2
41.4160152669011,2.0900635983027,2
41.416015343568,2.09006325212508,2
41.4160154213917,2.09006290857217,2
41.4160155003452,2.09006256763319,2
41.4160155804013,2.0900622292979,2
41.4160156615323,2.09006189355658,2
41.4160157437106,2.09006156040007,2
41.4160158269081,2.09006122981974,2
41.4160159110966,2.0900609018075,2
